! central density (gr/cm^3) 	 Radius (km) 	 Mass (Msolar)
3.009952e+14 			 18.585 		  0.162
3.040052e+14 			 18.279 		  0.165
3.070453e+14 			 17.992 		  0.167
3.101157e+14 			 17.707 		  0.170
3.132169e+14 			 17.439 		  0.173
3.163490e+14 			 17.185 		  0.176
3.195125e+14 			 16.936 		  0.179
3.227076e+14 			 16.703 		  0.182
3.259347e+14 			 16.477 		  0.185
3.291941e+14 			 16.259 		  0.188
3.324860e+14 			 16.055 		  0.191
3.358109e+14 			 15.854 		  0.194
3.391690e+14 			 15.664 		  0.198
3.425607e+14 			 15.482 		  0.201
3.459863e+14 			 15.305 		  0.205
3.494461e+14 			 15.138 		  0.208
3.529406e+14 			 14.976 		  0.212
3.564700e+14 			 14.820 		  0.216
3.600347e+14 			 13.650 		  0.257
3.636351e+14 			 12.712 		  0.336
3.672714e+14 			 12.558 		  0.364
3.709441e+14 			 12.451 		  0.392
3.746536e+14 			 12.379 		  0.421
3.784001e+14 			 12.333 		  0.450
3.821841e+14 			 12.307 		  0.479
3.860059e+14 			 12.296 		  0.508
3.898660e+14 			 12.297 		  0.537
3.937647e+14 			 12.307 		  0.565
3.977023e+14 			 12.323 		  0.594
4.016793e+14 			 12.345 		  0.623
4.056961e+14 			 12.371 		  0.651
4.097531e+14 			 12.400 		  0.679
4.138506e+14 			 12.431 		  0.707
4.179891e+14 			 12.464 		  0.734
4.221690e+14 			 12.498 		  0.761
4.263907e+14 			 12.529 		  0.786
4.306546e+14 			 12.557 		  0.808
4.349612e+14 			 12.585 		  0.829
4.393108e+14 			 12.612 		  0.849
4.437039e+14 			 12.638 		  0.869
4.481409e+14 			 12.664 		  0.889
4.526223e+14 			 12.690 		  0.908
4.571485e+14 			 12.714 		  0.927
4.617200e+14 			 12.738 		  0.946
4.663372e+14 			 12.762 		  0.965
4.710006e+14 			 12.785 		  0.983
4.757106e+14 			 12.807 		  1.001
4.804677e+14 			 12.829 		  1.019
4.852724e+14 			 12.850 		  1.036
4.901251e+14 			 12.870 		  1.054
4.950264e+14 			 12.890 		  1.071
4.999766e+14 			 12.909 		  1.088
5.049764e+14 			 12.927 		  1.104
5.100262e+14 			 12.945 		  1.121
5.151264e+14 			 12.962 		  1.137
5.202777e+14 			 12.978 		  1.153
5.254805e+14 			 12.994 		  1.169
5.307353e+14 			 13.009 		  1.184
5.360426e+14 			 13.023 		  1.199
5.414030e+14 			 13.037 		  1.215
5.468171e+14 			 13.050 		  1.230
5.522852e+14 			 13.062 		  1.244
5.578081e+14 			 13.074 		  1.259
5.633862e+14 			 13.085 		  1.273
5.690200e+14 			 13.096 		  1.287
5.747102e+14 			 13.106 		  1.301
5.804573e+14 			 13.115 		  1.315
5.862619e+14 			 13.124 		  1.329
5.921245e+14 			 13.133 		  1.342
5.980458e+14 			 13.141 		  1.356
6.040262e+14 			 13.148 		  1.369
6.100665e+14 			 13.154 		  1.382
6.161672e+14 			 13.161 		  1.395
6.223288e+14 			 13.166 		  1.407
6.285521e+14 			 13.172 		  1.420
6.348376e+14 			 13.176 		  1.432
6.411860e+14 			 13.180 		  1.444
6.475979e+14 			 13.184 		  1.456
6.540739e+14 			 13.187 		  1.468
6.606146e+14 			 13.190 		  1.480
6.672207e+14 			 13.192 		  1.491
6.738930e+14 			 13.194 		  1.503
6.806319e+14 			 13.195 		  1.514
6.874382e+14 			 13.196 		  1.525
6.943126e+14 			 13.197 		  1.536
7.012557e+14 			 13.197 		  1.547
7.082683e+14 			 13.196 		  1.558
7.153510e+14 			 13.196 		  1.569
7.225045e+14 			 13.194 		  1.579
7.297295e+14 			 13.193 		  1.590
7.370268e+14 			 13.190 		  1.600
7.443971e+14 			 13.188 		  1.610
7.518410e+14 			 13.185 		  1.620
7.593595e+14 			 13.182 		  1.630
7.669530e+14 			 13.178 		  1.640
7.746226e+14 			 13.174 		  1.649
7.823688e+14 			 13.169 		  1.659
7.901925e+14 			 13.164 		  1.668
7.980944e+14 			 13.159 		  1.678
8.060754e+14 			 13.154 		  1.687
8.141361e+14 			 13.148 		  1.696
8.222775e+14 			 13.141 		  1.705
8.305002e+14 			 13.134 		  1.714
8.388053e+14 			 13.127 		  1.722
8.471933e+14 			 13.120 		  1.731
8.556652e+14 			 13.112 		  1.740
8.642219e+14 			 13.104 		  1.748
8.728641e+14 			 13.095 		  1.756
8.815927e+14 			 13.087 		  1.765
8.904087e+14 			 13.077 		  1.773
8.993128e+14 			 13.068 		  1.781
9.083059e+14 			 13.058 		  1.789
9.173890e+14 			 13.048 		  1.796
9.265628e+14 			 13.037 		  1.804
9.358285e+14 			 13.027 		  1.812
9.451868e+14 			 13.016 		  1.819
9.546386e+14 			 13.004 		  1.826
9.641850e+14 			 12.993 		  1.834
9.738269e+14 			 12.981 		  1.841
9.835651e+14 			 12.968 		  1.848
9.934008e+14 			 12.956 		  1.855
1.003335e+15 			 12.943 		  1.861
1.013368e+15 			 12.930 		  1.868
1.023502e+15 			 12.917 		  1.875
1.033737e+15 			 12.903 		  1.881
1.044074e+15 			 12.889 		  1.888
1.054515e+15 			 12.875 		  1.894
1.065060e+15 			 12.861 		  1.900
1.075711e+15 			 12.846 		  1.906
1.086468e+15 			 12.832 		  1.912
1.097332e+15 			 12.817 		  1.918
1.108306e+15 			 12.802 		  1.923
1.119389e+15 			 12.786 		  1.929
1.130583e+15 			 12.771 		  1.934
1.141889e+15 			 12.755 		  1.940
1.153307e+15 			 12.740 		  1.945
1.164841e+15 			 12.724 		  1.950
1.176489e+15 			 12.708 		  1.955
1.188254e+15 			 12.691 		  1.960
1.200136e+15 			 12.675 		  1.964
1.212138e+15 			 12.659 		  1.969
1.224259e+15 			 12.642 		  1.973
1.236502e+15 			 12.626 		  1.978
1.248867e+15 			 12.609 		  1.982
1.261355e+15 			 12.593 		  1.986
1.273969e+15 			 12.576 		  1.990
1.286709e+15 			 12.560 		  1.994
1.299576e+15 			 12.543 		  1.997
1.312571e+15 			 12.526 		  2.001
1.325697e+15 			 12.510 		  2.004
1.338954e+15 			 12.493 		  2.008
1.352344e+15 			 12.477 		  2.011
1.365867e+15 			 12.460 		  2.014
1.379526e+15 			 12.444 		  2.017
1.393321e+15 			 12.427 		  2.020
1.407254e+15 			 12.411 		  2.022
1.421327e+15 			 12.394 		  2.025
1.435540e+15 			 12.378 		  2.027
1.449895e+15 			 12.362 		  2.030
1.464394e+15 			 12.346 		  2.032
1.479038e+15 			 12.330 		  2.034
1.493829e+15 			 12.314 		  2.036
1.508767e+15 			 12.298 		  2.038
1.523855e+15 			 12.283 		  2.040
1.539093e+15 			 12.267 		  2.042
1.554484e+15 			 12.252 		  2.043
1.570029e+15 			 12.236 		  2.045
1.585729e+15 			 12.221 		  2.046
1.601587e+15 			 12.206 		  2.048
1.617603e+15 			 12.191 		  2.049
1.633779e+15 			 12.176 		  2.050
1.650116e+15 			 12.161 		  2.051
1.666617e+15 			 12.147 		  2.052
1.683284e+15 			 12.132 		  2.053
1.700116e+15 			 12.118 		  2.054
1.717118e+15 			 12.103 		  2.055
1.734289e+15 			 12.089 		  2.056
1.751632e+15 			 12.075 		  2.056
1.769148e+15 			 12.061 		  2.057
1.786840e+15 			 12.047 		  2.057
1.804708e+15 			 12.033 		  2.058
1.822755e+15 			 12.020 		  2.058
1.840983e+15 			 12.006 		  2.059
1.859392e+15 			 11.993 		  2.059
1.877986e+15 			 11.980 		  2.059
1.896766e+15 			 11.966 		  2.059
1.915734e+15 			 11.954 		  2.059
1.934891e+15 			 11.941 		  2.059
