! central density (gr/cm^3) 	 Radius (km) 	 Mass (Msolar)
3.009952e+14 			 38.421 		  0.105
3.040052e+14 			 37.533 		  0.105
3.070453e+14 			 36.650 		  0.106
3.101157e+14 			 35.798 		  0.106
3.132169e+14 			 34.949 		  0.107
3.163490e+14 			 34.116 		  0.108
3.195125e+14 			 33.329 		  0.108
3.227076e+14 			 32.529 		  0.109
3.259347e+14 			 31.744 		  0.109
3.291941e+14 			 30.995 		  0.110
3.324860e+14 			 30.253 		  0.111
3.358109e+14 			 29.518 		  0.111
3.391690e+14 			 28.802 		  0.112
3.425607e+14 			 28.119 		  0.113
3.459863e+14 			 27.433 		  0.114
3.494461e+14 			 26.769 		  0.115
3.529406e+14 			 26.122 		  0.116
3.564700e+14 			 25.493 		  0.117
3.600347e+14 			 24.896 		  0.118
3.636351e+14 			 24.290 		  0.119
3.672714e+14 			 23.712 		  0.120
3.709441e+14 			 23.147 		  0.121
3.746536e+14 			 22.598 		  0.122
3.784001e+14 			 22.076 		  0.124
3.821841e+14 			 21.562 		  0.125
3.860059e+14 			 21.072 		  0.127
3.898660e+14 			 20.582 		  0.128
3.937647e+14 			 20.120 		  0.130
3.977023e+14 			 19.684 		  0.131
4.016793e+14 			 19.274 		  0.133
4.056961e+14 			 18.863 		  0.135
4.097531e+14 			 18.465 		  0.137
4.138506e+14 			 18.090 		  0.138
4.179891e+14 			 17.738 		  0.140
4.221690e+14 			 17.393 		  0.142
4.263907e+14 			 17.060 		  0.144
4.306546e+14 			 16.747 		  0.146
4.349612e+14 			 16.452 		  0.149
4.393108e+14 			 16.163 		  0.151
4.437039e+14 			 15.882 		  0.153
4.481409e+14 			 15.619 		  0.156
4.526223e+14 			 15.371 		  0.158
4.571485e+14 			 15.124 		  0.161
4.617200e+14 			 14.888 		  0.163
4.663372e+14 			 14.666 		  0.166
4.710006e+14 			 14.457 		  0.169
4.757106e+14 			 14.245 		  0.172
4.804677e+14 			 14.049 		  0.175
4.852724e+14 			 13.862 		  0.178
4.901251e+14 			 13.683 		  0.181
4.950264e+14 			 13.506 		  0.184
4.999766e+14 			 13.339 		  0.187
5.049764e+14 			 13.183 		  0.190
5.100262e+14 			 13.028 		  0.194
5.151264e+14 			 12.882 		  0.197
5.202777e+14 			 12.744 		  0.201
5.254805e+14 			 12.608 		  0.205
5.307353e+14 			 12.479 		  0.209
5.360426e+14 			 12.357 		  0.212
5.414030e+14 			 12.239 		  0.216
5.468171e+14 			 12.123 		  0.221
5.522852e+14 			 12.015 		  0.225
5.578081e+14 			 11.911 		  0.229
5.633862e+14 			 11.808 		  0.234
5.690200e+14 			 11.714 		  0.238
5.747102e+14 			 11.622 		  0.243
5.804573e+14 			 11.533 		  0.247
5.862619e+14 			 11.449 		  0.252
5.921245e+14 			 11.369 		  0.257
5.980458e+14 			 11.290 		  0.262
6.040262e+14 			 11.216 		  0.267
6.100665e+14 			 11.144 		  0.273
6.161672e+14 			 11.076 		  0.278
6.223288e+14 			 11.011 		  0.284
6.285521e+14 			 10.948 		  0.289
6.348376e+14 			 10.887 		  0.295
6.411860e+14 			 10.830 		  0.301
6.475979e+14 			 10.775 		  0.307
6.540739e+14 			 10.722 		  0.313
6.606146e+14 			 10.673 		  0.319
6.672207e+14 			 10.624 		  0.326
6.738930e+14 			 10.579 		  0.332
6.806319e+14 			 10.535 		  0.339
6.874382e+14 			 10.493 		  0.345
6.943126e+14 			 10.454 		  0.352
7.012557e+14 			 10.415 		  0.359
7.082683e+14 			 10.378 		  0.366
7.153510e+14 			 10.343 		  0.374
7.225045e+14 			 10.310 		  0.381
7.297295e+14 			 10.279 		  0.388
7.370268e+14 			 10.248 		  0.396
7.443971e+14 			 10.219 		  0.404
7.518410e+14 			 10.191 		  0.412
7.593595e+14 			 10.165 		  0.420
7.669530e+14 			 10.141 		  0.428
7.746226e+14 			 10.117 		  0.436
7.823688e+14 			 10.094 		  0.444
7.901925e+14 			 10.072 		  0.453
7.980944e+14 			 10.052 		  0.461
8.060754e+14 			 10.033 		  0.470
8.141361e+14 			 10.014 		  0.479
8.222775e+14 			  9.997 		  0.488
8.305002e+14 			  9.980 		  0.497
8.388053e+14 			  9.964 		  0.506
8.471933e+14 			  9.949 		  0.515
8.556652e+14 			  9.935 		  0.525
8.642219e+14 			  9.921 		  0.534
8.728641e+14 			  9.908 		  0.544
8.815927e+14 			  9.895 		  0.554
8.904087e+14 			  9.884 		  0.563
8.993128e+14 			  9.873 		  0.573
9.083059e+14 			  9.862 		  0.583
9.173890e+14 			  9.852 		  0.593
9.265628e+14 			  9.843 		  0.604
9.358285e+14 			  9.833 		  0.614
9.451868e+14 			  9.825 		  0.624
9.546386e+14 			  9.816 		  0.635
9.641850e+14 			  9.808 		  0.645
9.738269e+14 			  9.801 		  0.656
9.835651e+14 			  9.793 		  0.667
9.934008e+14 			  9.786 		  0.678
1.003335e+15 			  9.780 		  0.688
1.013368e+15 			  9.773 		  0.699
1.023502e+15 			  9.767 		  0.710
1.033737e+15 			  9.761 		  0.721
1.044074e+15 			  9.755 		  0.732
1.054515e+15 			  9.750 		  0.744
1.065060e+15 			  9.744 		  0.755
1.075711e+15 			  9.739 		  0.766
1.086468e+15 			  9.734 		  0.778
1.097332e+15 			  9.729 		  0.789
1.108306e+15 			  9.724 		  0.800
1.119389e+15 			  9.719 		  0.812
1.130583e+15 			  9.714 		  0.823
1.141889e+15 			  9.709 		  0.835
1.153307e+15 			  9.705 		  0.847
1.164841e+15 			  9.700 		  0.858
1.176489e+15 			  9.695 		  0.870
1.188254e+15 			  9.691 		  0.881
1.200136e+15 			  9.686 		  0.893
1.212138e+15 			  9.681 		  0.904
1.224259e+15 			  9.676 		  0.916
1.236502e+15 			  9.672 		  0.928
1.248867e+15 			  9.667 		  0.939
1.261355e+15 			  9.662 		  0.951
1.273969e+15 			  9.657 		  0.962
1.286709e+15 			  9.652 		  0.974
1.299576e+15 			  9.646 		  0.986
1.312571e+15 			  9.641 		  0.997
1.325697e+15 			  9.636 		  1.009
1.338954e+15 			  9.630 		  1.020
1.352344e+15 			  9.625 		  1.032
1.365867e+15 			  9.619 		  1.043
1.379526e+15 			  9.613 		  1.054
1.393321e+15 			  9.607 		  1.066
1.407254e+15 			  9.601 		  1.077
1.421327e+15 			  9.595 		  1.088
1.435540e+15 			  9.589 		  1.099
1.449895e+15 			  9.582 		  1.110
1.464394e+15 			  9.575 		  1.121
1.479038e+15 			  9.569 		  1.132
1.493829e+15 			  9.561 		  1.143
1.508767e+15 			  9.554 		  1.154
1.523855e+15 			  9.547 		  1.165
1.539093e+15 			  9.540 		  1.175
1.554484e+15 			  9.532 		  1.186
1.570029e+15 			  9.524 		  1.196
1.585729e+15 			  9.516 		  1.207
1.601587e+15 			  9.508 		  1.217
1.617603e+15 			  9.500 		  1.227
1.633779e+15 			  9.491 		  1.237
1.650116e+15 			  9.483 		  1.247
1.666617e+15 			  9.474 		  1.257
1.683284e+15 			  9.465 		  1.267
1.700116e+15 			  9.456 		  1.277
1.717118e+15 			  9.447 		  1.286
1.734289e+15 			  9.437 		  1.296
1.751632e+15 			  9.428 		  1.305
1.769148e+15 			  9.418 		  1.314
1.786840e+15 			  9.408 		  1.323
1.804708e+15 			  9.398 		  1.332
1.822755e+15 			  9.387 		  1.341
1.840983e+15 			  9.377 		  1.350
1.859392e+15 			  9.366 		  1.359
1.877986e+15 			  9.355 		  1.367
1.896766e+15 			  9.344 		  1.376
1.915734e+15 			  9.333 		  1.384
1.934891e+15 			  9.322 		  1.392
1.954240e+15 			  9.310 		  1.400
1.973782e+15 			  9.299 		  1.408
1.993520e+15 			  9.287 		  1.416
2.013455e+15 			  9.275 		  1.424
2.033590e+15 			  9.263 		  1.431
2.053926e+15 			  9.251 		  1.438
2.074465e+15 			  9.239 		  1.446
2.095210e+15 			  9.226 		  1.453
2.116162e+15 			  9.214 		  1.460
2.137324e+15 			  9.201 		  1.466
2.158697e+15 			  9.188 		  1.473
2.180284e+15 			  9.176 		  1.480
2.202087e+15 			  9.163 		  1.486
2.224107e+15 			  9.150 		  1.492
2.246349e+15 			  9.137 		  1.498
2.268812e+15 			  9.123 		  1.505
2.291500e+15 			  9.110 		  1.511
2.314415e+15 			  9.096 		  1.516
2.337559e+15 			  9.083 		  1.522
2.360935e+15 			  9.069 		  1.527
2.384544e+15 			  9.055 		  1.533
2.408390e+15 			  9.041 		  1.538
2.432474e+15 			  9.027 		  1.543
2.456798e+15 			  9.013 		  1.548
2.481366e+15 			  8.999 		  1.553
2.506180e+15 			  8.985 		  1.558
2.531242e+15 			  8.971 		  1.562
2.556554e+15 			  8.957 		  1.567
2.582120e+15 			  8.942 		  1.571
2.607941e+15 			  8.928 		  1.576
2.634020e+15 			  8.913 		  1.580
2.660361e+15 			  8.899 		  1.584
2.686964e+15 			  8.884 		  1.588
2.713834e+15 			  8.870 		  1.591
2.740972e+15 			  8.855 		  1.595
2.768382e+15 			  8.841 		  1.599
2.796066e+15 			  8.826 		  1.602
2.824026e+15 			  8.811 		  1.605
2.852267e+15 			  8.797 		  1.608
2.880789e+15 			  8.782 		  1.612
2.909597e+15 			  8.767 		  1.615
2.938693e+15 			  8.752 		  1.617
2.968080e+15 			  8.737 		  1.620
2.997761e+15 			  8.723 		  1.623
3.027738e+15 			  8.707 		  1.625
3.058016e+15 			  8.692 		  1.628
3.088596e+15 			  8.678 		  1.630
3.119482e+15 			  8.663 		  1.633
3.150677e+15 			  8.648 		  1.635
3.182184e+15 			  8.633 		  1.637
3.214005e+15 			  8.618 		  1.639
3.246145e+15 			  8.604 		  1.641
3.278607e+15 			  8.589 		  1.642
3.311393e+15 			  8.574 		  1.644
3.344507e+15 			  8.559 		  1.646
3.377952e+15 			  8.544 		  1.647
3.411731e+15 			  8.530 		  1.649
3.445849e+15 			  8.515 		  1.650
3.480307e+15 			  8.500 		  1.651
3.515110e+15 			  8.485 		  1.653
3.550261e+15 			  8.471 		  1.654
3.585764e+15 			  8.456 		  1.655
3.621622e+15 			  8.442 		  1.656
3.657838e+15 			  8.427 		  1.657
3.694416e+15 			  8.412 		  1.658
3.731360e+15 			  8.398 		  1.658
3.768674e+15 			  8.383 		  1.659
3.806361e+15 			  8.368 		  1.660
3.844424e+15 			  8.357 		  1.660
3.882869e+15 			  8.346 		  1.660
3.921697e+15 			  8.336 		  1.661
3.960914e+15 			  8.326 		  1.661
4.000523e+15 			  8.315 		  1.661
4.040529e+15 			  8.305 		  1.661
4.080934e+15 			  8.294 		  1.662
4.121743e+15 			  8.283 		  1.662
4.162961e+15 			  8.272 		  1.662
4.204590e+15 			  8.260 		  1.662
