! central density (gr/cm^3) 	 Radius (km) 	 Mass (Msolar)
3.009952e+14 			 16.290 		  0.573
3.040052e+14 			 16.244 		  0.581
3.070453e+14 			 16.199 		  0.589
3.101157e+14 			 16.157 		  0.597
3.132169e+14 			 16.110 		  0.605
3.163490e+14 			 16.064 		  0.614
3.195125e+14 			 16.019 		  0.624
3.227076e+14 			 15.976 		  0.633
3.259347e+14 			 15.936 		  0.642
3.291941e+14 			 15.896 		  0.651
3.324860e+14 			 15.859 		  0.660
3.358109e+14 			 15.823 		  0.669
3.391690e+14 			 15.788 		  0.678
3.425607e+14 			 15.755 		  0.687
3.459863e+14 			 15.723 		  0.696
3.494461e+14 			 15.689 		  0.706
3.529406e+14 			 15.654 		  0.716
3.564700e+14 			 15.621 		  0.726
3.600347e+14 			 15.589 		  0.736
3.636351e+14 			 15.559 		  0.746
3.672714e+14 			 15.529 		  0.756
3.709441e+14 			 15.501 		  0.766
3.746536e+14 			 15.474 		  0.776
3.784001e+14 			 15.448 		  0.786
3.821841e+14 			 15.422 		  0.796
3.860059e+14 			 15.396 		  0.806
3.898660e+14 			 15.369 		  0.817
3.937647e+14 			 15.343 		  0.828
3.977023e+14 			 15.318 		  0.839
4.016793e+14 			 15.294 		  0.850
4.056961e+14 			 15.270 		  0.861
4.097531e+14 			 15.248 		  0.872
4.138506e+14 			 15.226 		  0.882
4.179891e+14 			 15.204 		  0.893
4.221690e+14 			 15.183 		  0.904
4.263907e+14 			 15.160 		  0.915
4.306546e+14 			 15.139 		  0.927
4.349612e+14 			 15.117 		  0.938
4.393108e+14 			 15.097 		  0.950
4.437039e+14 			 15.077 		  0.961
4.481409e+14 			 15.057 		  0.972
4.526223e+14 			 15.039 		  0.983
4.571485e+14 			 15.020 		  0.994
4.617200e+14 			 15.001 		  1.006
4.663372e+14 			 14.981 		  1.018
4.710006e+14 			 14.962 		  1.030
4.757106e+14 			 14.943 		  1.042
4.804677e+14 			 14.925 		  1.054
4.852724e+14 			 14.907 		  1.065
4.901251e+14 			 14.890 		  1.077
4.950264e+14 			 14.873 		  1.088
4.999766e+14 			 14.855 		  1.100
5.049764e+14 			 14.837 		  1.113
5.100262e+14 			 14.819 		  1.125
5.151264e+14 			 14.801 		  1.137
5.202777e+14 			 14.784 		  1.149
5.254805e+14 			 14.767 		  1.161
5.307353e+14 			 14.750 		  1.173
5.360426e+14 			 14.734 		  1.184
5.414030e+14 			 14.717 		  1.196
5.468171e+14 			 14.701 		  1.207
5.522852e+14 			 14.686 		  1.218
5.578081e+14 			 14.670 		  1.229
5.633862e+14 			 14.655 		  1.240
5.690200e+14 			 14.639 		  1.251
5.747102e+14 			 14.624 		  1.262
5.804573e+14 			 14.611 		  1.271
5.862619e+14 			 14.597 		  1.280
5.921245e+14 			 14.584 		  1.290
5.980458e+14 			 14.570 		  1.299
6.040262e+14 			 14.557 		  1.308
6.100665e+14 			 14.543 		  1.316
6.161672e+14 			 14.530 		  1.325
6.223288e+14 			 14.517 		  1.333
6.285521e+14 			 14.503 		  1.342
6.348376e+14 			 14.490 		  1.350
6.411860e+14 			 14.476 		  1.358
6.475979e+14 			 14.463 		  1.366
6.540739e+14 			 14.450 		  1.374
6.606146e+14 			 14.434 		  1.382
6.672207e+14 			 14.419 		  1.391
6.738930e+14 			 14.404 		  1.399
6.806319e+14 			 14.388 		  1.407
6.874382e+14 			 14.373 		  1.415
6.943126e+14 			 14.358 		  1.423
7.012557e+14 			 14.342 		  1.431
7.082683e+14 			 14.327 		  1.439
7.153510e+14 			 14.311 		  1.446
7.225045e+14 			 14.296 		  1.454
7.297295e+14 			 14.280 		  1.461
7.370268e+14 			 14.264 		  1.468
7.443971e+14 			 14.246 		  1.476
7.518410e+14 			 14.228 		  1.484
7.593595e+14 			 14.210 		  1.492
7.669530e+14 			 14.192 		  1.500
7.746226e+14 			 14.174 		  1.507
7.823688e+14 			 14.156 		  1.514
7.901925e+14 			 14.138 		  1.522
7.980944e+14 			 14.119 		  1.529
8.060754e+14 			 14.101 		  1.536
8.141361e+14 			 14.083 		  1.542
8.222775e+14 			 14.064 		  1.549
8.305002e+14 			 14.044 		  1.557
8.388053e+14 			 14.023 		  1.564
8.471933e+14 			 14.002 		  1.571
8.556652e+14 			 13.982 		  1.578
8.642219e+14 			 13.961 		  1.585
8.728641e+14 			 13.941 		  1.592
8.815927e+14 			 13.920 		  1.599
8.904087e+14 			 13.900 		  1.605
8.993128e+14 			 13.879 		  1.612
9.083059e+14 			 13.858 		  1.618
9.173890e+14 			 13.835 		  1.625
9.265628e+14 			 13.812 		  1.632
9.358285e+14 			 13.790 		  1.639
9.451868e+14 			 13.767 		  1.645
9.546386e+14 			 13.745 		  1.652
9.641850e+14 			 13.722 		  1.658
9.738269e+14 			 13.700 		  1.664
9.835651e+14 			 13.677 		  1.670
9.934008e+14 			 13.655 		  1.676
1.003335e+15 			 13.630 		  1.683
1.013368e+15 			 13.606 		  1.689
1.023502e+15 			 13.582 		  1.695
1.033737e+15 			 13.557 		  1.701
1.044074e+15 			 13.533 		  1.707
1.054515e+15 			 13.509 		  1.713
1.065060e+15 			 13.485 		  1.719
1.075711e+15 			 13.461 		  1.724
1.086468e+15 			 13.437 		  1.730
1.097332e+15 			 13.411 		  1.736
1.108306e+15 			 13.386 		  1.741
1.119389e+15 			 13.360 		  1.747
1.130583e+15 			 13.335 		  1.752
1.141889e+15 			 13.310 		  1.758
1.153307e+15 			 13.285 		  1.763
1.164841e+15 			 13.260 		  1.768
1.176489e+15 			 13.235 		  1.773
1.188254e+15 			 13.209 		  1.778
1.200136e+15 			 13.183 		  1.783
1.212138e+15 			 13.158 		  1.788
1.224259e+15 			 13.132 		  1.793
1.236502e+15 			 13.107 		  1.797
1.248867e+15 			 13.082 		  1.802
1.261355e+15 			 13.056 		  1.806
1.273969e+15 			 13.031 		  1.811
1.286709e+15 			 13.005 		  1.815
1.299576e+15 			 12.979 		  1.820
1.312571e+15 			 12.953 		  1.824
1.325697e+15 			 12.927 		  1.828
1.338954e+15 			 12.902 		  1.832
1.352344e+15 			 12.877 		  1.836
1.365867e+15 			 12.851 		  1.840
1.379526e+15 			 12.825 		  1.844
1.393321e+15 			 12.799 		  1.848
1.407254e+15 			 12.774 		  1.851
1.421327e+15 			 12.748 		  1.855
1.435540e+15 			 12.723 		  1.858
1.449895e+15 			 12.697 		  1.862
1.464394e+15 			 12.672 		  1.865
1.479038e+15 			 12.646 		  1.868
1.493829e+15 			 12.620 		  1.871
1.508767e+15 			 12.594 		  1.875
1.523855e+15 			 12.569 		  1.878
1.539093e+15 			 12.543 		  1.881
1.554484e+15 			 12.518 		  1.883
1.570029e+15 			 12.492 		  1.886
1.585729e+15 			 12.466 		  1.889
1.601587e+15 			 12.440 		  1.892
1.617603e+15 			 12.414 		  1.894
1.633779e+15 			 12.388 		  1.897
1.650116e+15 			 12.362 		  1.899
1.666617e+15 			 12.337 		  1.902
1.683284e+15 			 12.311 		  1.904
1.700116e+15 			 12.285 		  1.906
1.717118e+15 			 12.259 		  1.908
1.734289e+15 			 12.233 		  1.910
1.751632e+15 			 12.208 		  1.912
1.769148e+15 			 12.182 		  1.914
1.786840e+15 			 12.156 		  1.916
1.804708e+15 			 12.130 		  1.918
1.822755e+15 			 12.105 		  1.920
1.840983e+15 			 12.079 		  1.921
1.859392e+15 			 12.054 		  1.923
1.877986e+15 			 12.028 		  1.924
1.896766e+15 			 12.003 		  1.926
1.915734e+15 			 11.978 		  1.927
1.934891e+15 			 11.953 		  1.928
1.954240e+15 			 11.929 		  1.929
1.973782e+15 			 11.904 		  1.931
1.993520e+15 			 11.880 		  1.932
2.013455e+15 			 11.855 		  1.933
2.033590e+15 			 11.830 		  1.934
2.053926e+15 			 11.806 		  1.934
2.074465e+15 			 11.781 		  1.935
2.095210e+15 			 11.757 		  1.936
2.116162e+15 			 11.733 		  1.937
2.137324e+15 			 11.708 		  1.937
2.158697e+15 			 11.684 		  1.938
2.180284e+15 			 11.660 		  1.938
2.202087e+15 			 11.635 		  1.939
2.224107e+15 			 11.611 		  1.939
2.246349e+15 			 11.587 		  1.940
2.268812e+15 			 11.563 		  1.940
2.291500e+15 			 11.538 		  1.940
2.314415e+15 			 11.514 		  1.940
2.337559e+15 			 11.490 		  1.940
2.360935e+15 			 11.466 		  1.940
