! central density (gr/cm^3) 	 Radius (km) 	 Mass (Msolar)
4.179891e+14 			  1.463 		  0.003
4.221690e+14 			  2.648 		  0.016
4.263907e+14 			  3.420 		  0.035
4.306546e+14 			  4.025 		  0.058
4.349612e+14 			  4.531 		  0.083
4.393108e+14 			  4.969 		  0.109
4.437039e+14 			  5.357 		  0.138
4.481409e+14 			  5.706 		  0.167
4.526223e+14 			  6.022 		  0.197
4.571485e+14 			  6.312 		  0.228
4.617200e+14 			  6.579 		  0.259
4.663372e+14 			  6.826 		  0.290
4.710006e+14 			  7.056 		  0.322
4.757106e+14 			  7.270 		  0.353
4.804677e+14 			  7.471 		  0.385
4.852724e+14 			  7.659 		  0.416
4.901251e+14 			  7.837 		  0.448
4.950264e+14 			  8.004 		  0.479
4.999766e+14 			  8.162 		  0.510
5.049764e+14 			  8.312 		  0.540
5.100262e+14 			  8.453 		  0.571
5.151264e+14 			  8.587 		  0.601
5.202777e+14 			  8.715 		  0.630
5.254805e+14 			  8.836 		  0.660
5.307353e+14 			  8.952 		  0.688
5.360426e+14 			  9.061 		  0.717
5.414030e+14 			  9.166 		  0.745
5.468171e+14 			  9.266 		  0.772
5.522852e+14 			  9.361 		  0.800
5.578081e+14 			  9.452 		  0.826
5.633862e+14 			  9.539 		  0.853
5.690200e+14 			  9.622 		  0.878
5.747102e+14 			  9.701 		  0.904
5.804573e+14 			  9.777 		  0.929
5.862619e+14 			  9.850 		  0.953
5.921245e+14 			  9.919 		  0.977
5.980458e+14 			  9.986 		  1.001
6.040262e+14 			 10.049 		  1.024
6.100665e+14 			 10.110 		  1.047
6.161672e+14 			 10.169 		  1.069
6.223288e+14 			 10.225 		  1.091
6.285521e+14 			 10.278 		  1.113
6.348376e+14 			 10.330 		  1.134
6.411860e+14 			 10.379 		  1.155
6.475979e+14 			 10.426 		  1.175
6.540739e+14 			 10.471 		  1.195
6.606146e+14 			 10.515 		  1.214
6.672207e+14 			 10.556 		  1.233
6.738930e+14 			 10.596 		  1.252
6.806319e+14 			 10.634 		  1.270
6.874382e+14 			 10.670 		  1.288
6.943126e+14 			 10.705 		  1.306
7.012557e+14 			 10.738 		  1.323
7.082683e+14 			 10.770 		  1.340
7.153510e+14 			 10.801 		  1.356
7.225045e+14 			 10.830 		  1.373
7.297295e+14 			 10.858 		  1.389
7.370268e+14 			 10.885 		  1.404
7.443971e+14 			 10.910 		  1.419
7.518410e+14 			 10.934 		  1.434
7.593595e+14 			 10.958 		  1.449
7.669530e+14 			 10.980 		  1.463
7.746226e+14 			 11.001 		  1.477
7.823688e+14 			 11.021 		  1.491
7.901925e+14 			 11.040 		  1.504
7.980944e+14 			 11.058 		  1.517
8.060754e+14 			 11.075 		  1.530
8.141361e+14 			 11.092 		  1.542
8.222775e+14 			 11.107 		  1.554
8.305002e+14 			 11.122 		  1.566
8.388053e+14 			 11.136 		  1.578
8.471933e+14 			 11.149 		  1.589
8.556652e+14 			 11.161 		  1.601
8.642219e+14 			 11.173 		  1.612
8.728641e+14 			 11.184 		  1.622
8.815927e+14 			 11.194 		  1.633
8.904087e+14 			 11.203 		  1.643
8.993128e+14 			 11.212 		  1.653
9.083059e+14 			 11.220 		  1.663
9.173890e+14 			 11.228 		  1.672
9.265628e+14 			 11.235 		  1.681
9.358285e+14 			 11.242 		  1.690
9.451868e+14 			 11.248 		  1.699
9.546386e+14 			 11.253 		  1.708
9.641850e+14 			 11.258 		  1.716
9.738269e+14 			 11.262 		  1.725
9.835651e+14 			 11.266 		  1.733
9.934008e+14 			 11.269 		  1.740
1.003335e+15 			 11.272 		  1.748
1.013368e+15 			 11.275 		  1.756
1.023502e+15 			 11.277 		  1.763
1.033737e+15 			 11.278 		  1.770
1.044074e+15 			 11.280 		  1.777
1.054515e+15 			 11.280 		  1.784
1.065060e+15 			 11.281 		  1.790
1.075711e+15 			 11.281 		  1.797
1.086468e+15 			 11.280 		  1.803
1.097332e+15 			 11.280 		  1.809
1.108306e+15 			 11.278 		  1.815
1.119389e+15 			 11.277 		  1.821
1.130583e+15 			 11.275 		  1.826
1.141889e+15 			 11.273 		  1.832
1.153307e+15 			 11.271 		  1.837
1.164841e+15 			 11.268 		  1.842
1.176489e+15 			 11.265 		  1.847
1.188254e+15 			 11.261 		  1.852
1.200136e+15 			 11.258 		  1.857
1.212138e+15 			 11.254 		  1.861
1.224259e+15 			 11.250 		  1.866
1.236502e+15 			 11.245 		  1.870
1.248867e+15 			 11.241 		  1.874
1.261355e+15 			 11.236 		  1.878
1.273969e+15 			 11.230 		  1.882
1.286709e+15 			 11.225 		  1.886
1.299576e+15 			 11.219 		  1.890
1.312571e+15 			 11.214 		  1.894
1.325697e+15 			 11.207 		  1.897
1.338954e+15 			 11.201 		  1.900
1.352344e+15 			 11.195 		  1.904
1.365867e+15 			 11.188 		  1.907
1.379526e+15 			 11.181 		  1.910
1.393321e+15 			 11.174 		  1.913
1.407254e+15 			 11.166 		  1.915
1.421327e+15 			 11.159 		  1.918
1.435540e+15 			 11.151 		  1.921
1.449895e+15 			 11.144 		  1.923
1.464394e+15 			 11.135 		  1.926
1.479038e+15 			 11.127 		  1.928
1.493829e+15 			 11.119 		  1.930
1.508767e+15 			 11.111 		  1.932
1.523855e+15 			 11.102 		  1.934
1.539093e+15 			 11.093 		  1.936
1.554484e+15 			 11.084 		  1.938
1.570029e+15 			 11.075 		  1.940
1.585729e+15 			 11.066 		  1.942
1.601587e+15 			 11.057 		  1.943
1.617603e+15 			 11.047 		  1.945
1.633779e+15 			 11.038 		  1.946
1.650116e+15 			 11.028 		  1.948
1.666617e+15 			 11.018 		  1.949
1.683284e+15 			 11.008 		  1.950
1.700116e+15 			 10.998 		  1.951
1.717118e+15 			 10.988 		  1.952
1.734289e+15 			 10.978 		  1.953
1.751632e+15 			 10.967 		  1.954
1.769148e+15 			 10.957 		  1.955
1.786840e+15 			 10.946 		  1.956
1.804708e+15 			 10.936 		  1.956
1.822755e+15 			 10.925 		  1.957
1.840983e+15 			 10.914 		  1.958
1.859392e+15 			 10.903 		  1.958
1.877986e+15 			 10.892 		  1.959
1.896766e+15 			 10.881 		  1.959
1.915734e+15 			 10.870 		  1.959
1.934891e+15 			 10.859 		  1.959
1.954240e+15 			 10.847 		  1.960
1.973782e+15 			 10.836 		  1.960
1.993520e+15 			 10.825 		  1.960
2.013455e+15 			 10.813 		  1.960
