! central density (gr/cm^3) 	 Radius (km) 	 Mass (Msolar)
3.009952e+14 			 20.625 		  0.137
3.040052e+14 			 20.192 		  0.139
3.070453e+14 			 19.785 		  0.142
3.101157e+14 			 19.409 		  0.144
3.132169e+14 			 19.050 		  0.146
3.163490e+14 			 18.718 		  0.148
3.195125e+14 			 18.401 		  0.150
3.227076e+14 			 18.102 		  0.152
3.259347e+14 			 17.775 		  0.155
3.291941e+14 			 17.436 		  0.157
3.324860e+14 			 17.120 		  0.160
3.358109e+14 			 16.821 		  0.163
3.391690e+14 			 16.545 		  0.166
3.425607e+14 			 16.286 		  0.169
3.459863e+14 			 16.044 		  0.172
3.494461e+14 			 15.817 		  0.175
3.529406e+14 			 15.603 		  0.178
3.564700e+14 			 15.395 		  0.181
3.600347e+14 			 15.158 		  0.185
3.636351e+14 			 14.941 		  0.189
3.672714e+14 			 14.738 		  0.193
3.709441e+14 			 14.548 		  0.197
3.746536e+14 			 14.371 		  0.201
3.784001e+14 			 14.205 		  0.205
3.821841e+14 			 14.051 		  0.209
3.860059e+14 			 13.907 		  0.213
3.898660e+14 			 13.772 		  0.218
3.937647e+14 			 13.624 		  0.222
3.977023e+14 			 13.478 		  0.228
4.016793e+14 			 13.344 		  0.233
4.056961e+14 			 13.218 		  0.238
4.097531e+14 			 13.102 		  0.243
4.138506e+14 			 12.993 		  0.248
4.179891e+14 			 12.892 		  0.254
4.221690e+14 			 12.797 		  0.259
4.263907e+14 			 12.708 		  0.264
4.306546e+14 			 12.621 		  0.270
4.349612e+14 			 12.527 		  0.276
4.393108e+14 			 12.440 		  0.283
4.437039e+14 			 12.360 		  0.289
4.481409e+14 			 12.286 		  0.296
4.526223e+14 			 12.216 		  0.302
4.571485e+14 			 12.152 		  0.309
4.617200e+14 			 12.091 		  0.315
4.663372e+14 			 12.035 		  0.322
4.710006e+14 			 11.983 		  0.328
4.757106e+14 			 11.927 		  0.336
4.804677e+14 			 11.872 		  0.344
4.852724e+14 			 11.821 		  0.352
4.901251e+14 			 11.775 		  0.359
4.950264e+14 			 11.731 		  0.367
4.999766e+14 			 11.690 		  0.375
5.049764e+14 			 11.654 		  0.383
5.100262e+14 			 11.619 		  0.391
5.151264e+14 			 11.587 		  0.399
5.202777e+14 			 11.556 		  0.407
5.254805e+14 			 11.523 		  0.416
5.307353e+14 			 11.492 		  0.425
5.360426e+14 			 11.463 		  0.435
5.414030e+14 			 11.437 		  0.444
5.468171e+14 			 11.413 		  0.454
5.522852e+14 			 11.391 		  0.463
5.578081e+14 			 11.370 		  0.472
5.633862e+14 			 11.352 		  0.481
5.690200e+14 			 11.334 		  0.490
5.747102e+14 			 11.316 		  0.501
5.804573e+14 			 11.298 		  0.512
5.862619e+14 			 11.281 		  0.523
5.921245e+14 			 11.267 		  0.534
5.980458e+14 			 11.253 		  0.545
6.040262e+14 			 11.240 		  0.556
6.100665e+14 			 11.229 		  0.567
6.161672e+14 			 11.219 		  0.578
6.223288e+14 			 11.210 		  0.589
6.285521e+14 			 11.201 		  0.600
6.348376e+14 			 11.192 		  0.613
6.411860e+14 			 11.184 		  0.626
6.475979e+14 			 11.176 		  0.639
6.540739e+14 			 11.170 		  0.653
6.606146e+14 			 11.164 		  0.666
6.672207e+14 			 11.159 		  0.679
6.738930e+14 			 11.155 		  0.692
6.806319e+14 			 11.151 		  0.704
6.874382e+14 			 11.148 		  0.717
6.943126e+14 			 11.145 		  0.730
7.012557e+14 			 11.142 		  0.745
7.082683e+14 			 11.140 		  0.760
7.153510e+14 			 11.138 		  0.776
7.225045e+14 			 11.136 		  0.791
7.297295e+14 			 11.136 		  0.806
7.370268e+14 			 11.135 		  0.821
7.443971e+14 			 11.135 		  0.835
7.518410e+14 			 11.134 		  0.850
7.593595e+14 			 11.134 		  0.864
7.669530e+14 			 11.135 		  0.878
7.746226e+14 			 11.135 		  0.895
7.823688e+14 			 11.136 		  0.912
7.901925e+14 			 11.137 		  0.929
7.980944e+14 			 11.137 		  0.946
8.060754e+14 			 11.139 		  0.962
8.141361e+14 			 11.140 		  0.978
8.222775e+14 			 11.141 		  0.994
8.305002e+14 			 11.142 		  1.010
8.388053e+14 			 11.143 		  1.025
8.471933e+14 			 11.144 		  1.041
8.556652e+14 			 11.145 		  1.058
8.642219e+14 			 11.146 		  1.076
8.728641e+14 			 11.147 		  1.094
8.815927e+14 			 11.148 		  1.111
8.904087e+14 			 11.149 		  1.128
8.993128e+14 			 11.149 		  1.145
9.083059e+14 			 11.150 		  1.162
9.173890e+14 			 11.150 		  1.178
9.265628e+14 			 11.151 		  1.194
9.358285e+14 			 11.150 		  1.210
9.451868e+14 			 11.151 		  1.226
9.546386e+14 			 11.150 		  1.244
9.641850e+14 			 11.149 		  1.262
9.738269e+14 			 11.148 		  1.280
9.835651e+14 			 11.147 		  1.297
9.934008e+14 			 11.146 		  1.313
1.003335e+15 			 11.145 		  1.330
1.013368e+15 			 11.143 		  1.346
1.023502e+15 			 11.141 		  1.362
1.033737e+15 			 11.139 		  1.377
1.044074e+15 			 11.136 		  1.392
1.054515e+15 			 11.133 		  1.409
1.065060e+15 			 11.130 		  1.426
1.075711e+15 			 11.126 		  1.443
1.086468e+15 			 11.122 		  1.459
1.097332e+15 			 11.118 		  1.475
1.108306e+15 			 11.114 		  1.491
1.119389e+15 			 11.109 		  1.506
1.130583e+15 			 11.104 		  1.521
1.141889e+15 			 11.099 		  1.536
1.153307e+15 			 11.094 		  1.550
1.164841e+15 			 11.089 		  1.564
1.176489e+15 			 11.082 		  1.579
1.188254e+15 			 11.075 		  1.595
1.200136e+15 			 11.068 		  1.610
1.212138e+15 			 11.060 		  1.625
1.224259e+15 			 11.052 		  1.640
1.236502e+15 			 11.044 		  1.654
1.248867e+15 			 11.036 		  1.668
1.261355e+15 			 11.028 		  1.681
1.273969e+15 			 11.020 		  1.694
1.286709e+15 			 11.011 		  1.707
1.299576e+15 			 11.002 		  1.719
1.312571e+15 			 10.993 		  1.732
1.325697e+15 			 10.982 		  1.746
1.338954e+15 			 10.971 		  1.760
1.352344e+15 			 10.959 		  1.773
1.365867e+15 			 10.948 		  1.786
1.379526e+15 			 10.936 		  1.799
1.393321e+15 			 10.924 		  1.811
1.407254e+15 			 10.913 		  1.822
1.421327e+15 			 10.901 		  1.834
1.435540e+15 			 10.889 		  1.845
1.449895e+15 			 10.877 		  1.855
1.464394e+15 			 10.865 		  1.866
1.479038e+15 			 10.851 		  1.877
1.493829e+15 			 10.837 		  1.888
1.508767e+15 			 10.822 		  1.900
1.523855e+15 			 10.807 		  1.910
1.539093e+15 			 10.792 		  1.921
1.554484e+15 			 10.777 		  1.931
1.570029e+15 			 10.762 		  1.941
1.585729e+15 			 10.747 		  1.950
1.601587e+15 			 10.732 		  1.959
1.617603e+15 			 10.717 		  1.968
1.633779e+15 			 10.702 		  1.977
1.650116e+15 			 10.687 		  1.985
1.666617e+15 			 10.672 		  1.993
1.683284e+15 			 10.655 		  2.001
1.700116e+15 			 10.638 		  2.010
1.717118e+15 			 10.621 		  2.018
1.734289e+15 			 10.604 		  2.026
1.751632e+15 			 10.587 		  2.033
1.769148e+15 			 10.570 		  2.040
1.786840e+15 			 10.553 		  2.047
1.804708e+15 			 10.536 		  2.054
1.822755e+15 			 10.520 		  2.060
1.840983e+15 			 10.503 		  2.066
1.859392e+15 			 10.486 		  2.072
1.877986e+15 			 10.470 		  2.078
1.896766e+15 			 10.454 		  2.083
1.915734e+15 			 10.437 		  2.088
1.934891e+15 			 10.419 		  2.094
1.954240e+15 			 10.401 		  2.099
1.973782e+15 			 10.384 		  2.103
1.993520e+15 			 10.367 		  2.108
2.013455e+15 			 10.349 		  2.112
2.033590e+15 			 10.332 		  2.117
2.053926e+15 			 10.316 		  2.120
2.074465e+15 			 10.299 		  2.124
2.095210e+15 			 10.282 		  2.128
2.116162e+15 			 10.265 		  2.131
2.137324e+15 			 10.249 		  2.134
2.158697e+15 			 10.232 		  2.138
2.180284e+15 			 10.216 		  2.140
2.202087e+15 			 10.199 		  2.143
2.224107e+15 			 10.182 		  2.146
2.246349e+15 			 10.166 		  2.148
2.268812e+15 			 10.149 		  2.151
2.291500e+15 			 10.133 		  2.153
2.314415e+15 			 10.116 		  2.155
2.337559e+15 			 10.100 		  2.157
2.360935e+15 			 10.084 		  2.159
2.384544e+15 			 10.068 		  2.161
2.408390e+15 			 10.052 		  2.162
2.432474e+15 			 10.036 		  2.164
2.456798e+15 			 10.020 		  2.165
2.481366e+15 			 10.004 		  2.166
2.506180e+15 			  9.989 		  2.167
2.531242e+15 			  9.973 		  2.168
2.556554e+15 			  9.958 		  2.169
2.582120e+15 			  9.942 		  2.170
2.607941e+15 			  9.926 		  2.171
2.634020e+15 			  9.911 		  2.171
2.660361e+15 			  9.895 		  2.172
2.686964e+15 			  9.879 		  2.172
2.713834e+15 			  9.864 		  2.173
2.740972e+15 			  9.849 		  2.173
2.768382e+15 			  9.834 		  2.173
2.796066e+15 			  9.819 		  2.173
2.824026e+15 			  9.804 		  2.173
